Temperature (K),Internal Energy (J),Free Energy (J),Entropy (J/K)
300.0,1.1830245743028045e-24,-7.421481986469496e-21,2.474221661316984e-23
317.17171717171715,2.1264203439980158e-24,-7.846372709936299e-21,2.4745267857962202e-23
334.34343434343435,3.598657054697987e-24,-8.271327827804302e-21,2.4749780101173314e-23
351.5151515151515,5.784950275614644e-24,-8.696375770755176e-21,2.4756146804272283e-23
368.6868686868687,8.897008285011654e-24,-9.121551900413684e-21,2.4764779108163252e-23
385.85858585858585,1.3168473107069167e-23,-9.546898675143246e-21,2.4776090034541328e-23
403.030303030303,1.8849447245197076e-23,-9.972465561244939e-21,2.47904806432711e-23
420.2020202020202,2.6200554950738944e-23,-1.0398308714438139e-20,2.480832724300811e-23
437.3737373737374,3.5486930793665724e-23,-1.0824490467749081e-20,2.482997131015929e-23
454.54545454545456,4.6972450417116365e-23,-1.1251078667389984e-20,2.4855712341877326e-23
471.7171717171717,6.091443503041092e-23,-1.1678145899129225e-20,2.4885802213687754e-23
488.8888888888889,7.755898297147484e-23,-1.2105768645364873e-20,2.4920442772076543e-23
506.06060606060606,9.7137014284659e-23,-1.2534026408813645e-20,2.495978395369913e-23
523.2323232323232,1.1986105997144551e-22,-1.2963000833377029e-20,2.500392506431827e-23
540.4040404040404,1.4592278639476148e-22,-1.3392774847057241e-20,2.5052917035753196e-23
557.5757575757576,1.754912159977258e-22,-1.3823431846254563e-20,2.5106764156207302e-23
574.7474747474748,2.0871158619531936e-22,-1.4255054935686052e-20,2.5165428433703168e-23
591.9191919191919,2.457047770290563e-22,-1.4687726233686598e-20,2.5228833809054318e-23
609.0909090909091,2.8656723306638613e-22,-1.512152624885067e-20,2.5296869842215505e-23
626.2626262626263,3.313713044404247e-22,-1.5556533330843808e-20,2.5369396000486098e-23
643.4343434343434,3.801659345042712e-22,-1.5992823195715254e-20,2.54462467742615e-23
660.6060606060606,4.329776262376193e-22,-1.6430468524110478e-20,2.5527235137688523e-23
677.7777777777778,4.898116254613152e-22,-1.686953862934121e-20,2.561215600932074e-23
694.9494949494949,5.506532654694697e-22,-1.7310099191244262e-20,2.57007921201863e-23
712.1212121212121,6.154694244327541e-22,-1.7752212051077067e-20,2.579291431471448e-23
729.2929292929293,6.8421005355056445e-22,-1.8195935062291563e-20,2.588828771973003e-23
746.4646464646464,7.568097402281957e-22,-1.8641321991841695e-20,2.5986671744453174e-23
763.6363636363637,8.3318927640065795e-22,-1.9088422466663277e-20,2.6087824895324484e-23
780.8080808080808,9.132572074472609e-22,-1.9537281960076778e-20,2.619150537785797e-23
797.979797979798,9.969113419116315e-22,-1.998794181306967e-20,2.629747425636991e-23
815.1515151515152,1.0840402064598994e-21,-2.0440439285686262e-20,2.640549530351556e-23
832.3232323232323,1.1745244341941274e-21,-2.089480763406801e-20,2.651533816001798e-23
849.4949494949495,1.2682380776196265e-21,-2.1351076209027326e-20,2.6626778936521134e-23
866.6666666666667,1.3650498402815519e-21,-2.180927057238953e-20,2.673960036405317e-23
883.8383838383838,1.4648242233800274e-21,-2.2269412627690142e-20,2.685359359958574e-23
901.010101010101,1.5674225855865153e-21,-2.273152076215988e-20,2.696855807557074e-23
918.1818181818182,1.6727041158594717e-21,-2.319560999726237e-20,2.7084302402719935e-23
935.3535353535354,1.7805267203348202e-21,-2.3661692145365026e-20,2.7200644520468276e-23
952.5252525252525,1.8907478253840817e-21,-2.4129775970419603e-20,2.731741079419421e-23
969.6969696969697,2.003225099725328e-21,-2.4599867350803957e-20,2.743443902448524e-23
986.868686868687,2.1178170990710226e-21,-2.5071969442729497e-20,2.7551574384629427e-23
1004.040404040404,2.2343838372313127e-21,-2.5546082842850208e-20,2.766867423544026e-23
1021.2121212121212,2.3527872878869147e-21,-2.6022205748918926e-20,2.778560135440921e-23
1038.3838383838383,2.472891821425406e-21,-2.6500334117525353e-20,2.790223100747972e-23
1055.5555555555557,2.594564581318472e-21,-2.6980461818119938e-20,2.8018445983759074e-23
1072.7272727272727,2.7176758045231037e-21,-2.746258078267818e-20,2.8134137197371523e-23
1089.8989898989898,2.842099090332155e-21,-2.7946681150493577e-20,2.824920519209103e-23
1107.0707070707072,2.9677116219921952e-21,-2.843275140770451e-20,2.8363556680685915e-23
1124.2424242424242,3.0943943452606596e-21,-2.8920778521263243e-20,2.8477107704647664e-23
1141.4141414141413,3.2220321078993795e-21,-2.941074806714443e-20,2.8589780624925393e-23
1158.5858585858587,3.3505137639058223e-21,-2.990264435266729e-20,2.870150502470551e-23
1175.757575757576,3.47973224607369e-21,-3.03964505328717e-20,2.8812217408485166e-23
1192.9292929292928,3.6095846102565006e-21,-3.0892148720944974e-20,2.8921859396512916e-23
1210.1010101010102,3.739972054485947e-21,-3.1389720092742686e-20,2.903037953034806e-23
1227.2727272727275,3.8707999158751834e-21,-3.188914498548684e-20,2.913773267100753e-23
1244.4444444444446,4.001977648018532e-21,-3.2390402990757174e-20,2.9243877591553446e-23
1261.6161616161617,4.133418781385986e-21,-3.289347304191752e-20,2.934877697709314e-23
1278.787878787879,4.2650408690048284e-21,-3.3398333496140215e-20,2.94524016377509e-23
1295.959595959596,4.396765419523553e-21,-3.390496221120809e-20,2.955472388828376e-23
1313.1313131313132,4.528517819565372e-21,-3.4413336617285586e-20,2.965571995549398e-23
1330.3030303030305,4.66022724710122e-21,-3.4923433783859313e-20,2.9755371482861777e-23
1347.4747474747476,4.791826577405049e-21,-3.5435230482054177e-20,2.985366282220635e-23
1364.6464646464647,4.923252282998185e-21,-3.594870324253441e-20,2.995058163553899e-23
1381.818181818182,5.054444328843833e-21,-3.6463828409199626e-20,3.0046117992283427e-23
1398.989898989899,5.185346063917949e-21,-3.6980582188885285e-20,3.0140266174835136e-23
1416.1616161616162,5.315904110157927e-21,-3.749894069727467e-20,3.0233021368369255e-23
1433.3333333333335,5.446068249675734e-21,-3.8018880001225693e-20,3.032438236917957e-23
1450.5050505050506,5.575791311016807e-21,-3.8540376157711237e-20,3.0414349478192636e-23
1467.6767676767677,5.7050290551496804e-21,-3.906340524956655e-20,3.050292510282088e-23
1484.848484848485,5.8337400617835015e-21,-3.95879434182306e-20,3.059011345603606e-23
1502.020202020202,5.9618856165308205e-21,-4.0113966893662403e-20,3.0675920857295804e-23
1519.1919191919194,6.0894295993607696e-21,-4.064145202160586e-20,3.07603545288374e-23
1536.3636363636365,6.2163383747224135e-21,-4.117037528836987e-20,3.0843423197530915e-23
1553.5353535353536,6.3425806836593294e-21,-4.170071334328303e-20,3.0925137094879174e-23
1570.707070707071,6.468127538183631e-21,-4.2232443018975186e-20,3.1005507957017776e-23
1587.878787878788,6.592952118130439e-21,-4.2765541349630193e-20,3.1084547219155767e-23
1605.050505050505,6.717029670671689e-21,-4.329998558734794e-20,3.1162269024841175e-23
1622.2222222222224,6.840337412630636e-21,-4.383575321674555e-20,3.123868601298926e-23
1639.3939393939395,6.96285443570526e-21,-4.4372821967921526e-20,3.131381383178082e-23
1656.5656565656566,7.084561614679407e-21,-4.4911169827899363e-20,3.1387666925690443e-23
1673.737373737374,7.205441518674826e-21,-4.5450775050660775e-20,3.1460262146605136e-23
1690.909090909091,7.325478325474574e-21,-4.5991616165872127e-20,3.15316151427057e-23
1708.080808080808,7.444657738928699e-21,-4.653367198640195e-20,3.160174216402604e-23
1725.2525252525254,7.562966909435984e-21,-4.7076921614721057e-20,3.167066126615938e-23
1742.4242424242425,7.680394357480962e-21,-4.762134444827144e-20,3.173838930099274e-23
1759.5959595959598,7.796929900192727e-21,-4.816692018388491e-20,3.180494342133969e-23
1776.767676767677,7.912564580881451e-21,-4.871362882132684e-20,3.187034168279345e-23
1793.939393939394,8.027290601499617e-21,-4.926145066603612e-20,3.193460214094725e-23
1811.1111111111113,8.141101257967395e-21,-4.981036633112727e-20,3.1997742851394327e-23
1828.2828282828284,8.253990878295532e-21,-5.036035673871666e-20,3.205978126787479e-23
1845.4545454545455,8.365954763434288e-21,-5.09114031206306e-20,3.2120735746908434e-23
1862.6262626262628,8.476989130772888e-21,-5.146348701854891e-20,3.2180624945941585e-23
1879.79797979798,8.58709106021124e-21,-5.2016590283634103e-20,3.2239465115008153e-23
1896.969696969697,8.696258442723348e-21,-5.2570695075693054e-20,3.229727611526069e-23
1914.1414141414143,8.80448993133062e-21,-5.3125783861914116e-20,3.23540741967331e-23
1931.3131313131314,8.911784894402246e-21,-5.368183941522025e-20,3.2409879220577935e-23
1948.4848484848485,9.018143371199846e-21,-5.423884481227557e-20,3.246470593219633e-23
1965.6565656565658,9.12356602958352e-21,-5.479678343117983e-20,3.251857479459395e-23
1982.828282828283,9.228054125797218e-21,-5.535563894888302e-20,3.2571501155025035e-23
2000.0,9.33160946625224e-21,-5.59153953383502e-20,3.26235018653766e-23
